,Unnamed: 0,Unnamed: 0.1,date,index,day_index,ticker,close,volume,vwap,change,P/E,EPS,PEG
0,0,41216,3/15/2018,41216,0,EOG,97.9439,3843021,98.0718,0.0,0.0,0,0.0
1,1,41217,3/16/2018,41217,0,EOG,99.73100000000001,4950799,99.3721,1.7870999999999952,0.0,0,0.0
2,2,41218,3/19/2018,41218,0,EOG,97.7652,2605066,97.6501,-1.965800000000001,0.0,0,0.0
3,3,41219,3/20/2018,41219,0,EOG,100.6047,4555069,100.3298,2.839500000000001,0.0,0,0.0
4,4,41220,3/21/2018,41220,0,EOG,104.03,5288876,103.5973,3.4253000000000067,0.0,0,0.0
5,5,41221,3/22/2018,41221,0,EOG,103.5435,6672783,103.5438,-0.4865000000000066,0.0,0,0.0
6,6,41222,3/23/2018,41222,0,EOG,105.1023,6576370,105.2419,1.5588000000000048,0.0,0,0.0
7,7,41223,3/26/2018,41223,0,EOG,106.8,4818051,105.9516,1.6976999999999975,0.0,0,0.0
8,8,41224,3/27/2018,41224,0,EOG,105.5689,5199905,105.6468,-1.231099999999998,0.0,0,0.0
9,9,41225,3/28/2018,41225,0,EOG,103.0769,5512392,104.1209,-2.4920000000000044,0.0,0,0.0
10,10,41226,3/29/2018,41226,0,EOG,104.5165,3392992,104.2835,1.4395999999999989,0.0,0,0.0
11,11,41227,4/2/2018,41227,0,EOG,102.1932,3757666,101.4758,-2.3232999999999895,0.0,0,0.0
12,12,41228,4/3/2018,41228,0,EOG,104.3179,3477069,103.1846,2.12469999999999,0.0,0,0.0
13,13,41229,4/4/2018,41229,0,EOG,103.4244,4241912,103.1304,-0.8934999999999889,0.0,0,0.0
14,14,41230,4/5/2018,41230,0,EOG,103.6329,3842533,103.8567,0.2085000000000008,0.0,0,0.0
15,15,41231,4/6/2018,41231,0,EOG,101.2004,6473868,100.4663,-2.4325000000000045,0.0,0,0.0
16,16,41232,4/9/2018,41232,0,EOG,102.64,4634332,103.2579,1.4395999999999989,0.0,0,0.0
17,17,41233,4/10/2018,41233,0,EOG,106.8894,5453564,106.9043,4.249399999999993,0.0,0,0.0
18,18,41234,4/11/2018,41234,0,EOG,108.6169,3466547,108.4542,1.7275000000000065,0.0,0,0.0
19,19,41235,4/12/2018,41235,0,EOG,109.1928,4378355,109.1533,0.5759000000000043,0.0,0,0.0
20,20,41236,4/13/2018,41236,0,EOG,110.411,3338156,110.0566,1.2181999999999957,0.0,0,0.0
21,21,41237,4/16/2018,41237,0,EOG,110.411,2745043,110.5996,0.0,0.0,0,0.0
22,22,41238,4/17/2018,41238,0,EOG,110.5403,3720093,110.7656,0.12930000000000064,0.0,0,0.0
23,23,41239,4/18/2018,41239,0,EOG,112.23100000000001,5109452,112.4142,1.6906999999999923,0.0,0,0.0
24,24,41240,4/19/2018,41240,0,EOG,113.4145,4963223,113.1885,1.183500000000009,0.0,0,0.0
25,25,41241,4/20/2018,41241,0,EOG,113.3449,3112447,113.1842,-0.06960000000000832,0.0,0,0.0
26,26,41242,4/23/2018,41242,0,EOG,114.2101,2146925,113.8354,0.8652000000000015,0.0,0,0.0
27,27,41243,4/24/2018,41243,0,EOG,113.9615,3632322,114.2548,-0.24859999999999616,0.0,0,0.0
28,28,41244,4/25/2018,41244,0,EOG,114.76700000000001,2924148,114.4614,0.8054999999999949,0.0,0,0.0
29,29,41245,4/26/2018,41245,0,EOG,116.9748,3439920,116.63,2.207800000000006,0.0,0,0.0
30,30,41246,4/27/2018,41246,0,EOG,116.1494,1822347,116.3084,-0.8254000000000019,0.0,0,0.0
31,31,41247,4/30/2018,41247,0,EOG,117.5218,3315547,117.5428,1.3723999999999992,180.80276923076923,0.6500,2658.864253393665
32,32,41248,5/1/2018,41248,0,EOG,116.9152,2364905,116.4158,-0.6066000000000003,0.0,0,0.0
33,33,41249,5/2/2018,41249,0,EOG,116.0102,4779500,116.3925,-0.9050000000000012,0.0,0,0.0
34,34,41250,5/3/2018,41250,0,EOG,115.3737,4269510,114.6462,-0.6364999999999981,0.0,0,0.0
35,35,41251,5/4/2018,41251,0,EOG,114.0311,5724954,113.1477,-1.3426000000000045,0.0,0,0.0
36,36,41252,5/7/2018,41252,0,EOG,113.2653,5991347,114.3673,-0.7657999999999987,0.0,0,0.0
37,37,41253,5/8/2018,41253,0,EOG,114.6576,3886225,113.2067,1.392300000000006,0.0,0,0.0
38,38,41254,5/9/2018,41254,0,EOG,117.1439,6104651,117.0891,2.4863,0.0,0,0.0
39,39,41255,5/10/2018,41255,0,EOG,118.2975,4093137,118.3384,1.1535999999999973,0.0,0,0.0
40,40,41256,5/11/2018,41256,0,EOG,116.766,2951245,117.4028,-1.531499999999994,0.0,0,0.0
41,41,41257,5/14/2018,41257,0,EOG,118.029,2645068,118.1191,1.262999999999991,0.0,0,0.0
42,42,41258,5/15/2018,41258,0,EOG,119.5705,3191202,119.1033,1.5414999999999992,0.0,0,0.0
43,43,41259,5/16/2018,41259,0,EOG,120.8336,2900150,120.4408,1.2631000000000083,0.0,0,0.0
44,44,41260,5/17/2018,41260,0,EOG,125.4581,5721363,124.4398,4.6244999999999985,0.0,0,0.0
45,45,41261,5/18/2018,41261,0,EOG,125.1,4064392,124.9509,-0.3581000000000074,0.0,0,0.0
46,46,41262,5/21/2018,41262,0,EOG,126.7509,2573279,126.3743,1.6509000000000071,0.0,0,0.0
47,47,41263,5/22/2018,41263,0,EOG,123.0812,2397243,124.5289,-3.6697000000000064,0.0,0,0.0
48,48,41264,5/23/2018,41264,0,EOG,122.3054,4382934,122.1475,-0.7757999999999896,0.0,0,0.0
49,49,41265,5/24/2018,41265,0,EOG,119.3219,3176181,119.7077,-2.9835000000000065,0.0,0,0.0
50,50,41266,5/25/2018,41266,0,EOG,117.1141,3935591,116.1352,-2.207800000000006,0.0,0,0.0
51,51,41267,5/29/2018,41267,0,EOG,115.5726,3255225,115.44200000000001,-1.5414999999999992,0.0,0,0.0
52,52,41268,5/30/2018,41268,0,EOG,119.1031,2894036,118.6677,3.5305000000000035,0.0,0,0.0
53,53,41269,5/31/2018,41269,0,EOG,117.1638,3544157,117.6585,-1.9393000000000034,0.0,0,0.0
54,54,41270,6/1/2018,41270,0,EOG,117.7008,2919371,117.2847,0.5370000000000061,0.0,0,0.0
55,55,41271,6/4/2018,41271,0,EOG,118.0191,3756482,118.3642,0.3182999999999936,0.0,0,0.0
56,56,41272,6/5/2018,41272,0,EOG,115.9405,4158693,115.8006,-2.0785999999999945,0.0,0,0.0
57,57,41273,6/6/2018,41273,0,EOG,115.50299999999999,4361062,115.1542,-0.4375,0.0,0,0.0
58,58,41274,6/7/2018,41274,0,EOG,117.2831,3737073,117.5924,1.7801000000000045,0.0,0,0.0
59,59,41275,6/8/2018,41275,0,EOG,117.0246,2413530,116.8948,-0.25849999999999795,0.0,0,0.0
60,60,41276,6/11/2018,41276,0,EOG,117.3627,2374892,117.0117,0.3380999999999972,0.0,0,0.0
61,61,41277,6/12/2018,41277,0,EOG,117.8202,3396796,117.8249,0.4574999999999961,0.0,0,0.0
62,62,41278,6/13/2018,41278,0,EOG,117.6014,2364853,117.9971,-0.2188000000000017,0.0,0,0.0
63,63,41279,6/14/2018,41279,0,EOG,116.8853,2856553,117.1524,-0.7160999999999973,0.0,0,0.0
64,64,41280,6/15/2018,41280,0,EOG,113.5537,5028559,114.3948,-3.3315999999999946,0.0,0,0.0
65,65,41281,6/18/2018,41281,0,EOG,115.9803,3181612,116.0718,2.426599999999993,0.0,0,0.0
66,66,41282,6/19/2018,41282,0,EOG,116.4378,2447966,116.2194,0.4574999999999961,0.0,0,0.0
67,67,41283,6/20/2018,41283,0,EOG,118.7749,2383557,118.2795,2.3371000000000066,0.0,0,0.0
68,68,41284,6/21/2018,41284,0,EOG,115.9604,3003639,116.2502,-2.814499999999996,0.0,0,0.0
69,69,41285,6/22/2018,41285,0,EOG,117.86,3364827,118.633,1.8995999999999924,0.0,0,0.0
70,70,41286,6/25/2018,41286,0,EOG,116.1892,1946310,116.3775,-1.6707999999999998,0.0,0,0.0
71,71,41287,6/26/2018,41287,0,EOG,119.0235,2472597,118.523,2.834299999999999,0.0,0,0.0
72,72,41288,6/27/2018,41288,0,EOG,123.2502,4709193,123.1924,4.226700000000008,0.0,0,0.0
73,73,41289,6/28/2018,41289,0,EOG,122.8226,2679688,122.649,-0.4276000000000124,0.0,0,0.0
74,74,41290,6/29/2018,41290,0,EOG,123.7475,3020241,124.3165,0.9249000000000079,0.0,0,0.0
75,75,41291,7/2/2018,41291,0,EOG,121.7286,2310840,121.5582,-2.018900000000002,0.0,0,0.0
76,76,41292,7/3/2018,41292,0,EOG,121.7585,1382761,122.6443,0.029899999999997817,0.0,0,0.0
77,77,41293,7/5/2018,41293,0,EOG,122.5441,2483854,122.9978,0.7856000000000023,0.0,0,0.0
78,78,41294,7/6/2018,41294,0,EOG,123.6679,1495076,123.4805,1.1238000000000028,0.0,0,0.0
79,79,41295,7/9/2018,41295,0,EOG,125.4382,1671904,125.0589,1.7702999999999918,0.0,0,0.0
80,80,41296,7/10/2018,41296,0,EOG,126.2736,1996218,126.1559,0.8354000000000071,0.0,0,0.0
81,81,41297,7/11/2018,41297,0,EOG,123.9762,1963790,124.4289,-2.297399999999996,0.0,0,0.0
82,82,41298,7/12/2018,41298,0,EOG,123.4591,1971237,123.3131,-0.5170999999999992,0.0,0,0.0
83,83,41299,7/13/2018,41299,0,EOG,125.2691,1820213,125.3701,1.809999999999988,0.0,0,0.0
84,84,41300,7/16/2018,41300,0,EOG,124.1088,3210163,123.9433,-1.1602999999999923,0.0,0,0.0
85,85,41301,7/17/2018,41301,0,EOG,123.82,3869201,123.1517,-0.28880000000000905,0.0,0,0.0
86,86,41302,7/18/2018,41302,0,EOG,123.083,3280198,122.2564,-0.7369999999999948,0.0,0,0.0
87,87,41303,7/19/2018,41303,0,EOG,121.8977,2889349,122.2271,-1.185299999999998,0.0,0,0.0
88,88,41304,7/20/2018,41304,0,EOG,121.8579,1540628,121.7745,-0.03979999999999961,0.0,0,0.0
89,89,41305,7/23/2018,41305,0,EOG,122.3659,1746311,122.3802,0.5079999999999956,0.0,0,0.0
90,90,41306,7/24/2018,41306,0,EOG,125.1148,2850860,125.2735,2.748900000000006,0.0,0,0.0
91,91,41307,7/25/2018,41307,0,EOG,127.8637,2967334,127.0395,2.7488999999999915,0.0,0,0.0
92,92,41308,7/26/2018,41308,0,EOG,128.3417,2860317,128.42700000000002,0.4780000000000086,0.0,0,0.0
93,93,41309,7/27/2018,41309,0,EOG,128.6306,2452915,128.8408,0.28889999999998395,0.0,0,0.0
94,94,41310,7/30/2018,41310,0,EOG,129.3775,2053326,129.7341,0.7469000000000108,0.0,0,0.0
95,95,41311,7/31/2018,41311,0,EOG,128.4214,2467908,128.5481,-0.9560999999999922,191.67373134328358,0.6700,2818.7313432835817
96,96,41312,8/1/2018,41312,0,EOG,125.065,3525519,125.2909,-3.3564000000000083,0.0,0,0.0
97,97,41313,8/2/2018,41313,0,EOG,125.4235,3510603,124.7619,0.3585000000000065,0.0,0,0.0
98,98,41314,8/3/2018,41314,0,EOG,121.9177,4117651,121.7229,-3.5058000000000082,0.0,0,0.0
99,99,41315,8/6/2018,41315,0,EOG,123.4017,2395966,123.3544,1.4840000000000089,0.0,0,0.0
100,100,41316,8/7/2018,41316,0,EOG,123.9295,1774014,124.4641,0.5277999999999992,0.0,0,0.0
101,101,41317,8/8/2018,41317,0,EOG,122.2762,3152892,122.2082,-1.6533000000000015,0.0,0,0.0
102,102,41318,8/9/2018,41318,0,EOG,121.8181,1874788,121.958,-0.4581000000000017,0.0,0,0.0
103,103,41319,8/10/2018,41319,0,EOG,122.2762,2268014,121.9721,0.4581000000000017,0.0,0,0.0
104,104,41320,8/13/2018,41320,0,EOG,121.0113,1581944,121.3675,-1.2648999999999972,0.0,0,0.0
105,105,41321,8/14/2018,41321,0,EOG,122.575,1469931,122.4043,1.5636999999999972,0.0,0,0.0
106,106,41322,8/15/2018,41322,0,EOG,114.9757,4183972,116.287,-7.599299999999999,0.0,0,0.0
107,107,41323,8/16/2018,41323,0,EOG,115.4438,3702262,115.7029,0.4680999999999926,0.0,0,0.0
108,108,41324,8/17/2018,41324,0,EOG,114.3084,4492925,114.4768,-1.13539999999999,0.0,0,0.0
109,109,41325,8/20/2018,41325,0,EOG,114.3084,4020618,114.5026,0.0,0.0,0,0.0
110,110,41326,8/21/2018,41326,0,EOG,115.0255,2548800,115.4948,0.7170999999999879,0.0,0,0.0
111,111,41327,8/22/2018,41327,0,EOG,116.8481,2104183,116.8098,1.8226000000000084,0.0,0,0.0
112,112,41328,8/23/2018,41328,0,EOG,115.9318,2074845,115.7591,-0.9163000000000068,0.0,0,0.0
113,113,41329,8/24/2018,41329,0,EOG,116.9876,2147133,117.4599,1.055800000000005,0.0,0,0.0
114,114,41330,8/27/2018,41330,0,EOG,118.1728,1816478,117.9811,1.1851999999999947,0.0,0,0.0
115,115,41331,8/28/2018,41331,0,EOG,117.4955,1970730,117.8667,-0.6772999999999882,0.0,0,0.0
116,116,41332,8/29/2018,41332,0,EOG,118.3023,2070868,118.3896,0.8067999999999955,0.0,0,0.0
117,117,41333,8/30/2018,41333,0,EOG,118.4317,2096772,118.3881,0.12940000000000396,0.0,0,0.0
118,118,41334,8/31/2018,41334,0,EOG,117.7545,2020107,117.7398,-0.6772000000000133,0.0,0,0.0
119,119,41335,9/4/2018,41335,0,EOG,117.2067,1703126,117.2298,-0.5477999999999952,0.0,0,0.0
120,120,41336,9/5/2018,41336,0,EOG,117.4158,2081640,117.1116,0.2091000000000065,0.0,0,0.0
121,121,41337,9/6/2018,41337,0,EOG,115.0355,1982356,115.4311,-2.3803000000000054,0.0,0,0.0
122,122,41338,9/7/2018,41338,0,EOG,114.0096,3288565,114.0447,-1.025899999999993,0.0,0,0.0
123,123,41339,9/10/2018,41339,0,EOG,113.8602,1778678,114.1751,-0.14939999999999998,0.0,0,0.0
124,124,41340,9/11/2018,41340,0,EOG,115.7526,2370898,115.6268,1.8923999999999952,0.0,0,0.0
125,125,41341,9/12/2018,41341,0,EOG,116.4697,2236028,117.2054,0.7171000000000021,0.0,0,0.0
126,126,41342,9/13/2018,41342,0,EOG,116.15100000000001,2335979,115.7291,-0.3187000000000069,0.0,0,0.0
127,127,41343,9/14/2018,41343,0,EOG,117.3461,1536581,117.3971,1.1951000000000107,0.0,0,0.0
128,128,41344,9/17/2018,41344,0,EOG,117.0673,2537213,117.1085,-0.27880000000000393,0.0,0,0.0
129,129,41345,9/18/2018,41345,0,EOG,118.9696,1868186,119.0447,1.9022999999999968,0.0,0,0.0
130,130,41346,9/19/2018,41346,0,EOG,119.6867,1767256,119.5003,0.7171000000000021,0.0,0,0.0
131,131,41347,9/20/2018,41347,0,EOG,118.7305,1997527,118.8661,-0.9561999999999956,0.0,0,0.0
132,132,41348,9/21/2018,41348,0,EOG,118.9795,4784611,118.6749,0.24899999999999525,0.0,0,0.0
133,133,41349,9/24/2018,41349,0,EOG,123.4913,3593427,123.1302,4.511799999999994,0.0,0,0.0
134,134,41350,9/25/2018,41350,0,EOG,125.1347,3873631,125.3093,1.6433999999999995,0.0,0,0.0
135,135,41351,9/26/2018,41351,0,EOG,124.806,3106225,125.1158,-0.32869999999999777,0.0,0,0.0
136,136,41352,9/27/2018,41352,0,EOG,126.4892,2925502,126.4296,1.6831999999999994,0.0,0,0.0
137,137,41353,9/28/2018,41353,0,EOG,127.0569,2724602,127.4936,0.5677000000000021,0.0,0,0.0
138,138,41354,10/1/2018,41354,0,EOG,128.9692,2024564,128.6968,1.9123000000000017,0.0,0,0.0
139,139,41355,10/2/2018,41355,0,EOG,129.4771,3278228,129.0123,0.5079000000000065,0.0,0,0.0
140,140,41356,10/3/2018,41356,0,EOG,129.8556,3172439,129.4909,0.3785000000000025,0.0,0,0.0
141,141,41357,10/4/2018,41357,0,EOG,129.7062,3223158,129.4119,-0.1494000000000142,0.0,0,0.0
142,142,41358,10/5/2018,41358,0,EOG,130.5229,2244026,130.0766,0.8166999999999973,0.0,0,0.0
143,143,41359,10/8/2018,41359,0,EOG,129.3078,2115531,129.49,-1.2151000000000067,0.0,0,0.0
144,144,41360,10/9/2018,41360,0,EOG,131.8177,2454137,131.5611,2.509900000000016,0.0,0,0.0
145,145,41361,10/10/2018,41361,0,EOG,125.9613,3450778,127.5707,-5.856400000000009,0.0,0,0.0
146,146,41362,10/11/2018,41362,0,EOG,121.1308,4760950,122.4406,-4.830500000000002,0.0,0,0.0
147,147,41363,10/12/2018,41363,0,EOG,121.6886,2955426,121.4392,0.5578000000000003,0.0,0,0.0
148,148,41364,10/15/2018,41364,0,EOG,122.07700000000001,2277521,122.2024,0.3884000000000043,0.0,0,0.0
149,149,41365,10/16/2018,41365,0,EOG,121.9872,2427114,122.2571,-0.08979999999999677,0.0,0,0.0
150,150,41366,10/17/2018,41366,0,EOG,119.87200000000001,2576399,119.6052,-2.115200000000001,0.0,0,0.0
151,151,41367,10/18/2018,41367,0,EOG,118.2855,2096920,118.1198,-1.586500000000001,0.0,0,0.0
152,152,41368,10/19/2018,41368,0,EOG,117.4075,3547492,117.8086,-0.8780000000000001,0.0,0,0.0
153,153,41369,10/22/2018,41369,0,EOG,115.9906,1593490,116.0013,-1.4168999999999985,0.0,0,0.0
154,154,41370,10/23/2018,41370,0,EOG,110.8721,5023705,110.973,-5.118499999999997,0.0,0,0.0
155,155,41371,10/24/2018,41371,0,EOG,105.9032,5540939,107.8449,-4.968900000000005,0.0,0,0.0
156,156,41372,10/25/2018,41372,0,EOG,106.881,2926659,107.1817,0.9778000000000021,0.0,0,0.0
157,157,41373,10/26/2018,41373,0,EOG,106.3223,4332268,105.86200000000001,-0.5587000000000018,0.0,0,0.0
158,158,41374,10/29/2018,41374,0,EOG,101.8123,4307577,103.3914,-4.510000000000005,0.0,0,0.0
159,159,41375,10/30/2018,41375,0,EOG,105.2746,4274156,103.7789,3.4623000000000133,0.0,0,0.0
160,160,41376,10/31/2018,41376,0,EOG,105.105,4010853,106.3798,-0.16960000000000264,129.75925925925927,0.8100,1908.2244008714597
161,161,41377,11/1/2018,41377,0,EOG,106.6515,3771712,105.7181,1.5464999999999949,0.0,0,0.0
162,162,41378,11/2/2018,41378,0,EOG,102.1217,6607494,102.7169,-4.5297999999999945,0.0,0,0.0
163,163,41379,11/5/2018,41379,0,EOG,106.1127,5029710,105.7511,3.991,0.0,0,0.0
164,164,41380,11/6/2018,41380,0,EOG,107.0905,4336673,106.4124,0.9778000000000021,0.0,0,0.0
165,165,41381,11/7/2018,41381,0,EOG,108.9065,3424396,108.4436,1.8159999999999883,0.0,0,0.0
166,166,41382,11/8/2018,41382,0,EOG,104.6161,4150093,105.6148,-4.290399999999991,0.0,0,0.0
167,167,41383,11/9/2018,41383,0,EOG,105.2746,3486003,104.4324,0.6585000000000036,0.0,0,0.0
168,168,41384,11/12/2018,41384,0,EOG,101.0241,3267022,102.369,-4.2505000000000015,0.0,0,0.0
169,169,41385,11/13/2018,41385,0,EOG,98.3002,5175698,99.4185,-2.7239000000000004,0.0,0,0.0
170,170,41386,11/14/2018,41386,0,EOG,97.8512,4669883,98.5495,-0.4489999999999981,0.0,0,0.0
171,171,41387,11/15/2018,41387,0,EOG,101.3634,4217666,100.4434,3.5121999999999933,0.0,0,0.0
172,172,41388,11/16/2018,41388,0,EOG,104.9653,6064971,104.4474,3.6019000000000005,0.0,0,0.0
173,173,41389,11/19/2018,41389,0,EOG,105.4742,4309250,105.1013,0.508899999999997,0.0,0,0.0
174,174,41390,11/20/2018,41390,0,EOG,102.1316,5704647,102.2939,-3.3425999999999902,0.0,0,0.0
175,175,41391,11/21/2018,41391,0,EOG,105.7635,5253382,105.8783,3.631899999999988,0.0,0,0.0
176,176,41392,11/23/2018,41392,0,EOG,100.4753,3373732,100.3294,-5.288199999999988,0.0,0,0.0
177,177,41393,11/26/2018,41393,0,EOG,102.3112,3664176,101.8759,1.8358999999999952,0.0,0,0.0
178,178,41394,11/27/2018,41394,0,EOG,101.7225,3554969,101.5643,-0.5887000000000029,0.0,0,0.0
179,179,41395,11/28/2018,41395,0,EOG,103.5385,3580761,102.913,1.8160000000000025,0.0,0,0.0
180,180,41396,11/29/2018,41396,0,EOG,105.2347,2662116,105.0592,1.6962000000000046,0.0,0,0.0
181,181,41397,11/30/2018,41397,0,EOG,103.0795,5268875,103.3297,-2.155200000000008,0.0,0,0.0
182,182,41398,12/3/2018,41398,0,EOG,107.8688,4061429,107.1942,4.789299999999997,0.0,0,0.0
183,183,41399,12/4/2018,41399,0,EOG,103.8378,3153871,105.1226,-4.030999999999992,0.0,0,0.0
184,184,41400,12/6/2018,41400,0,EOG,101.9021,5046203,100.7799,-1.9356999999999966,0.0,0,0.0
185,185,41401,12/7/2018,41401,0,EOG,103.3788,5226563,105.0244,1.4766999999999941,0.0,0,0.0
186,186,41402,12/10/2018,41402,0,EOG,101.4831,3368722,100.9268,-1.8957000000000048,0.0,0,0.0
187,187,41403,12/11/2018,41403,0,EOG,101.8423,3713814,102.4326,0.3592000000000013,0.0,0,0.0
188,188,41404,12/12/2018,41404,0,EOG,103.6981,3443259,104.7824,1.855800000000002,0.0,0,0.0
189,189,41405,12/13/2018,41405,0,EOG,102.6006,2685157,102.6075,-1.0974999999999966,0.0,0,0.0
190,190,41406,12/14/2018,41406,0,EOG,99.8567,3088455,100.1079,-2.7438999999999965,0.0,0,0.0
191,191,41407,12/17/2018,41407,0,EOG,95.9954,4816089,97.3123,-3.8613,0.0,0,0.0
192,192,41408,12/18/2018,41408,0,EOG,93.8003,4658657,94.7191,-2.1951000000000107,0.0,0,0.0
193,193,41409,12/19/2018,41409,0,EOG,92.7726,4046650,94.3037,-1.0276999999999958,0.0,0,0.0
194,194,41410,12/20/2018,41410,0,EOG,89.5398,5743826,90.3183,-3.232799999999997,0.0,0,0.0
195,195,41411,12/21/2018,41411,0,EOG,87.0653,7468846,88.1096,-2.474500000000006,0.0,0,0.0
196,196,41412,12/24/2018,41412,0,EOG,82.6751,2773362,84.3292,-4.390199999999994,0.0,0,0.0
197,197,41413,12/26/2018,41413,0,EOG,88.7915,4488227,85.5986,6.116399999999999,0.0,0,0.0
198,198,41414,12/27/2018,41414,0,EOG,88.5919,4305197,86.54299999999998,-0.19960000000000375,0.0,0,0.0
199,199,41415,12/28/2018,41415,0,EOG,87.3247,3325222,87.5175,-1.2671999999999883,0.0,0,0.0
200,200,41416,12/31/2018,41416,0,EOG,87.0154,3571125,87.0108,-0.30930000000000746,0.0,0,0.0
201,201,41417,1/2/2019,41417,0,EOG,90.4078,3862988,89.4007,3.3923999999999954,0.0,0,0.0
202,202,41418,1/3/2019,41418,0,EOG,89.7693,2961706,89.6986,-0.6384999999999934,0.0,0,0.0
203,203,41419,1/4/2019,41419,0,EOG,93.7105,3874273,92.87899999999999,3.9411999999999954,0.0,0,0.0
204,204,41420,1/7/2019,41420,0,EOG,94.2991,4453062,94.5804,0.5885999999999996,0.0,0,0.0
205,205,41421,1/8/2019,41421,0,EOG,95.3069,3438135,95.2805,1.0078000000000031,0.0,0,0.0
206,206,41422,1/9/2019,41422,0,EOG,98.9687,4739621,98.3146,3.6618,0.0,0,0.0
207,207,41423,1/10/2019,41423,0,EOG,98.8989,3480397,98.3314,-0.06980000000000075,0.0,0,0.0
208,208,41424,1/11/2019,41424,0,EOG,96.6539,3206060,96.5322,-2.2450000000000045,0.0,0,0.0
209,209,41425,1/14/2019,41425,0,EOG,98.2902,3504856,97.8849,1.6363000000000056,0.0,0,0.0
210,210,41426,1/15/2019,41426,0,EOG,98.37,2452677,98.5818,0.07980000000000588,0.0,0,0.0
211,211,41427,1/16/2019,41427,0,EOG,98.67,2800492,98.613,0.2999999999999972,0.0,0,0.0
212,212,41428,1/17/2019,41428,0,EOG,99.05,2670771,98.5111,0.37999999999999545,0.0,0,0.0
213,213,41429,1/18/2019,41429,0,EOG,101.05,3299569,100.5872,2.0,0.0,0,0.0
214,214,41430,1/22/2019,41430,0,EOG,96.86,4390213,97.7563,-4.189999999999999,0.0,0,0.0
215,215,41431,1/23/2019,41431,0,EOG,96.57,2679126,96.7647,-0.29000000000000625,0.0,0,0.0
216,216,41432,1/24/2019,41432,0,EOG,97.24,3128912,96.9178,0.6700000000000017,0.0,0,0.0
217,217,41433,1/25/2019,41433,0,EOG,99.1,2417720,99.2994,1.8599999999999997,0.0,0,0.0
218,218,41434,1/28/2019,41434,0,EOG,98.1,2953043,97.5374,-1.0,0.0,0,0.0
219,219,41435,1/29/2019,41435,0,EOG,98.87,2873391,98.9847,0.7700000000000102,0.0,0,0.0
220,220,41436,1/30/2019,41436,0,EOG,99.45,3000648,99.30799999999999,0.5799999999999983,0.0,0,0.0
221,221,41437,1/31/2019,41437,0,EOG,99.2,2500657,99.4822,-0.25,130.5263157894737,0.7600,1919.5046439628484
222,222,41438,2/1/2019,41438,0,EOG,98.85,2614650,99.3483,-0.3500000000000085,0.0,0,0.0
223,223,41439,2/4/2019,41439,0,EOG,99.38,1788359,98.5349,0.5300000000000011,0.0,0,0.0
224,224,41440,2/5/2019,41440,0,EOG,98.35,1978101,98.4798,-1.0300000000000011,0.0,0,0.0
225,225,41441,2/6/2019,41441,0,EOG,96.18,2723700,96.7206,-2.1699999999999875,0.0,0,0.0
226,226,41442,2/7/2019,41442,0,EOG,92.99,3458969,92.9519,-3.190000000000012,0.0,0,0.0
227,227,41443,2/8/2019,41443,0,EOG,92.5,3072991,91.6123,-0.4899999999999949,0.0,0,0.0
228,228,41444,2/11/2019,41444,0,EOG,94.21,2625650,93.4593,1.7099999999999935,0.0,0,0.0
229,229,41445,2/12/2019,41445,0,EOG,95.63,3072416,95.7601,1.4200000000000017,0.0,0,0.0
230,230,41446,2/13/2019,41446,0,EOG,96.75,3469175,96.9101,1.1200000000000043,0.0,0,0.0
231,231,41447,2/14/2019,41447,0,EOG,96.96,2654728,97.1511,0.20999999999999372,0.0,0,0.0
232,232,41448,2/15/2019,41448,0,EOG,100.25,3038628,99.3743,3.2900000000000063,0.0,0,0.0
233,233,41449,2/19/2019,41449,0,EOG,99.71,2791516,99.4875,-0.5400000000000063,0.0,0,0.0
234,234,41450,2/20/2019,41450,0,EOG,98.78,3456312,98.9837,-0.9299999999999926,0.0,0,0.0
235,235,41451,2/21/2019,41451,0,EOG,95.35,3836798,95.8246,-3.4300000000000064,0.0,0,0.0
236,236,41452,2/22/2019,41452,0,EOG,95.53,4163755,95.7241,0.18000000000000682,0.0,0,0.0
237,237,41453,2/25/2019,41453,0,EOG,94.75,6090760,94.795,-0.7800000000000011,0.0,0,0.0
238,238,41454,2/26/2019,41454,0,EOG,93.91,5777555,93.9567,-0.8400000000000034,0.0,0,0.0
239,239,41455,2/27/2019,41455,0,EOG,95.04,6452228,95.9833,1.1300000000000097,0.0,0,0.0
240,240,41456,2/28/2019,41456,0,EOG,94.0,5204722,94.1592,-1.0400000000000065,0.0,0,0.0
241,241,41457,3/1/2019,41457,0,EOG,96.42,5033919,95.9409,2.4200000000000017,0.0,0,0.0
242,242,41458,3/4/2019,41458,0,EOG,96.81,3729106,96.3567,0.39000000000000057,0.0,0,0.0
243,243,41459,3/5/2019,41459,0,EOG,95.5,3336968,95.7808,-1.3100000000000025,0.0,0,0.0
244,244,41460,3/6/2019,41460,0,EOG,91.94,5079169,92.5498,-3.5600000000000023,0.0,0,0.0
245,245,41461,3/7/2019,41461,0,EOG,91.35,3731346,91.4049,-0.5900000000000034,0.0,0,0.0
246,246,41462,3/8/2019,41462,0,EOG,86.44,6760961,86.9542,-4.909999999999997,0.0,0,0.0
247,247,41463,3/11/2019,41463,0,EOG,86.26,7699136,86.7029,-0.1799999999999926,0.0,0,0.0
248,248,41464,3/12/2019,41464,0,EOG,86.98,8308871,87.0845,0.7199999999999989,0.0,0,0.0
249,249,41465,3/13/2019,41465,0,EOG,88.57,6656037,87.9982,1.5899999999999892,0.0,0,0.0
250,250,41466,3/14/2019,41466,0,EOG,89.69,4338879,89.5142,1.1200000000000043,0.0,0,0.0
251,251,41467,3/15/2019,41467,0,EOG,88.85,8939907,88.8243,-0.8400000000000034,0.0,0,0.0
252,252,41468,3/18/2019,41468,0,EOG,91.92,4197035,91.0758,3.0700000000000074,0.0,0,0.0
253,253,41469,3/19/2019,41469,0,EOG,92.88,7035357,92.7205,0.9599999999999936,0.0,0,0.0
254,254,41470,3/20/2019,41470,0,EOG,95.89,7928507,95.34700000000001,3.0100000000000047,0.0,0,0.0
255,255,41471,3/21/2019,41471,0,EOG,96.87,5389145,96.2247,0.980000000000004,0.0,0,0.0
